time (s)	det(V)
3176.102923	-0.309148	
3176.104482	-0.306175	
3176.106007	-0.300906	
3176.107580	-0.297567	
3176.109070	-0.294054	
3176.110644	-0.290336	
3176.112170	-0.285925	
3176.113754	-0.282424	
3176.115251	-0.279085	
3176.116810	-0.275141	
3176.118333	-0.271157	
3176.119895	-0.267793	
3176.121433	-0.263084	
3176.122944	-0.259273	
3176.124508	-0.255515	
3176.126020	-0.251205	
3176.127583	-0.248252	
3176.129103	-0.244034	
3176.130822	-0.241202	
3176.132409	-0.237158	
3176.134051	-0.233798	
3176.135663	-0.229730	
3176.137270	-0.226414	
3176.138892	-0.222011	
3176.140495	-0.219256	
3176.142150	-0.215619	
3176.143748	-0.212509	
3176.145400	-0.208770	
3176.146988	-0.205524	
3176.148671	-0.202623	
3176.150225	-0.199119	
3176.151928	-0.195682	
3176.153468	-0.192665	
3176.155170	-0.189978	
3176.156711	-0.187259	
3176.158437	-0.184476	
3176.159966	-0.181881	
3176.161702	-0.179029	
3176.163179	-0.176842	
3176.164962	-0.174155	
3176.166450	-0.171424	
3176.168213	-0.168330	
3176.169694	-0.166179	
3176.171475	-0.163589	
3176.172951	-0.161027	
3176.174725	-0.158851	
3176.176234	-0.157103	
3176.177994	-0.155129	
3176.179502	-0.152628	
3176.181237	-0.150505	
3176.182757	-0.148756	
3176.184453	-0.146287	
3176.185995	-0.143503	
3176.187680	-0.141953	
3176.189250	-0.139507	
3176.190939	-0.137038	
3176.192495	-0.134561	
3176.194140	-0.132172	
3176.195730	-0.129485	
3176.197391	-0.127680	
3176.198988	-0.124647	
3176.200616	-0.121420	
3176.202244	-0.118282	
3176.203853	-0.114641	
3176.205493	-0.110902	
3176.207108	-0.107760	
3176.208750	-0.104179	
3176.210346	-0.100453	
3176.212013	-0.096920	
3176.213593	-0.093625	
3176.215282	-0.090293	
3176.216836	-0.086954	
3176.218540	-0.081931	
3176.220097	-0.078353	
3176.221813	-0.073729	
3176.223346	-0.070039	
3176.225053	-0.066426	
3176.226569	-0.062442	
3176.228340	-0.058945	
3176.229814	-0.055114	
3176.231589	-0.051102	
3176.233080	-0.047468	
3176.234845	-0.043513	
3176.236333	-0.039770	
3176.238068	-0.035492	
3176.239568	-0.032398	
3176.241323	-0.028503	
3176.242828	-0.024950	
3176.244558	-0.021945	
3176.246084	-0.018291	
3176.247808	-0.015278	
3176.249346	-0.012124	
3176.251073	-0.008954	
3176.252618	-0.005767	
3176.254318	-0.003427	
3176.255887	0.000388	
3176.257580	0.003405	
3176.259145	0.006004	
3176.260809	0.008062	
3176.262399	0.010926	
3176.263959	0.012989	
3176.265585	0.015345	
3176.267109	0.018282	
3176.268772	0.021400	
3176.270252	0.024119	
3176.271973	0.027414	
3176.273448	0.029722	
3176.275151	0.033489	
3176.276634	0.037010	
3176.278337	0.040301	
3176.279841	0.042577	
3176.281546	0.046097	
3176.283039	0.048543	
3176.284730	0.052615	
3176.286222	0.054787	
3176.287879	0.057904	
3176.289394	0.061091	
3176.291034	0.064164	
3176.292589	0.066835	
3176.294172	0.069139	
3176.295765	0.073063	
3176.297335	0.075263	
3176.298951	0.077877	
3176.300489	0.081567	
3176.302149	0.085539	
3176.303627	0.088677	
3176.305315	0.092560	
3176.306791	0.094747	
3176.308485	0.097910	
3176.309970	0.100665	
3176.311666	0.104855	
3176.313175	0.107554	
3176.314889	0.111413	
3176.316380	0.114087	
3176.318074	0.117467	
3176.319559	0.120734	
3176.321209	0.125032	
3176.322722	0.129306	
3176.324353	0.132992	
3176.325918	0.137202	
3176.327506	0.139470	
3176.329096	0.143849	
3176.330657	0.147067	
3176.332268	0.150922	
3176.333799	0.154822	
3176.335450	0.159785	
3176.336927	0.164333	
3176.338635	0.167962	
3176.340114	0.171612	
3176.341738	0.176309	
3176.343232	0.180728	
3176.344856	0.184059	
3176.346358	0.188269	
3176.347959	0.191894	
3176.349489	0.195762	
3176.351050	0.198960	
3176.352608	0.204350	
3176.354099	0.206815	
3176.355751	0.211267	
3176.357249	0.215468	
3176.358879	0.218389	
3176.360402	0.221068	
3176.362035	0.224367	
3176.363528	0.226115	
3176.365160	0.228677	
3176.366665	0.231324	
3176.368299	0.233652	
3176.369782	0.236295	
3176.371414	0.238865	
3176.372903	0.240927	
3176.374481	0.243106	
3176.376019	0.244875	
3176.377565	0.246059	
3176.379178	0.247534	
3176.380677	0.247248	
3176.382313	0.249362	
3176.383834	0.249419	
3176.385475	0.251066	
3176.386955	0.252335	
3176.388590	0.252859	
3176.390066	0.254204	
3176.391699	0.255405	
3176.393179	0.256609	
3176.394825	0.256243	
3176.396306	0.258011	
3176.397903	0.258019	
3176.399445	0.258962	
3176.400991	0.259320	
3176.402597	0.261165	
3176.404087	0.262189	
3176.405746	0.262994	
3176.407243	0.264287	
3176.408873	0.265903	
3176.410401	0.265975	
3176.412047	0.267051	
3176.413520	0.267691	
3176.415088	0.269722	
3176.416594	0.269963	
3176.418145	0.271551	
3176.419671	0.274016	
3176.421158	0.275103	
3176.422742	0.276787	
3176.424253	0.278318	
3176.425839	0.281895	
3176.427332	0.283043	
3176.428954	0.285255	
3176.430472	0.286806	
3176.432057	0.288997	
3176.433533	0.290741	
3176.435102	0.293920	
3176.436587	0.295479	
3176.438136	0.298810	
3176.439647	0.299910	
3176.441140	0.302532	
3176.442710	0.304732	
3176.444226	0.307173	
3176.445814	0.309912	
3176.447307	0.311991	
3176.448875	0.315064	
3176.450399	0.315959	
3176.451973	0.319878	
3176.453448	0.322746	
3176.455009	0.324873	
3176.456502	0.328450	
3176.458051	0.330247	
3176.459566	0.333852	
3176.461064	0.335492	
3176.462652	0.337434	
3176.464178	0.338715	
3176.465766	0.340112	
3176.467269	0.342803	
3176.468820	0.344395	
3176.470347	0.346489	
3176.471906	0.347851	
3176.473398	0.349462	
3176.474946	0.350900	
3176.476455	0.350824	
3176.477989	0.351674	
3176.479524	0.352576	
3176.481017	0.352137	
3176.482601	0.352520	
3176.484100	0.352604	
3176.485687	0.353076	
3176.487201	0.351956	
3176.488782	0.351879	
3176.490276	0.350570	
3176.491839	0.348729	
3176.493347	0.346634	
3176.494896	0.344717	
3176.496398	0.343013	
3176.497899	0.341265	
3176.499468	0.338533	
3176.500956	0.335685	
3176.502515	0.333462	
3176.504037	0.331061	
3176.505590	0.327983	
3176.507110	0.324773	
3176.508650	0.321292	
3176.510200	0.317852	
3176.511715	0.313816	
3176.513277	0.309695	
3176.514827	0.306448	
3176.516401	0.301356	
3176.517885	0.298774	
3176.519456	0.295024	
3176.520978	0.289911	
3176.522569	0.286141	
3176.524056	0.283362	
3176.525613	0.280743	
3176.527136	0.276167	
3176.528650	0.272163	
3176.530210	0.268106	
3176.531711	0.264118	
3176.533284	0.260299	
3176.534800	0.257979	
3176.536386	0.254627	
3176.537891	0.251054	
3176.539451	0.247207	
3176.540978	0.244754	
3176.542511	0.242184	
3176.544059	0.238389	
3176.545592	0.236166	
3176.547149	0.232879	
3176.548684	0.230494	
3176.550223	0.228258	
3176.551738	0.225696	
3176.553326	0.223682	
3176.554820	0.222075	
3176.556397	0.220512	
3176.557915	0.219706	
3176.559486	0.217426	
3176.560993	0.215770	
3176.562541	0.214864	
3176.564063	0.213232	
3176.565588	0.212314	
3176.567145	0.211126	
3176.568634	0.210453	
3176.570218	0.210131	
3176.571736	0.210002	
3176.573322	0.209635	
3176.574816	0.209277	
3176.576375	0.208987	
3176.577902	0.208821	
3176.579460	0.207907	
3176.580984	0.208121	
3176.582522	0.207190	
3176.584068	0.207150	
3176.585580	0.207399	
3176.587137	0.207585	
3176.588658	0.208064	
3176.590232	0.206400	
3176.591719	0.206912	
3176.593297	0.205575	
3176.594818	0.204700	
3176.596394	0.204817	
3176.597881	0.204777	
3176.599437	0.202851	
3176.600962	0.202259	
3176.602527	0.202755	
3176.604070	0.200326	
3176.605584	0.200265	
3176.607158	0.199689	
3176.608648	0.197506	
3176.610228	0.195709	
3176.611754	0.194074	
3176.613322	0.192430	
3176.614817	0.190815	
3176.616381	0.188543	
3176.617899	0.186190	
3176.619459	0.184470	
3176.620985	0.181046	
3176.622531	0.179467	
3176.624079	0.177062	
3176.625601	0.174718	
3176.627130	0.170987	
3176.628664	0.167797	
3176.630268	0.164740	
3176.631758	0.161577	
3176.633321	0.157307	
3176.634847	0.154745	
3176.636398	0.151297	
3176.637916	0.148900	
3176.639445	0.145238	
3176.641006	0.141581	
3176.642544	0.138463	
3176.644092	0.134716	
3176.645604	0.131115	
3176.647188	0.127115	
3176.648677	0.123498	
3176.650242	0.120259	
3176.651774	0.116955	
3176.653370	0.112440	
3176.654871	0.109721	
3176.656411	0.105676	
3176.657948	0.102965	
3176.659505	0.099513	
3176.661037	0.095505	
3176.662560	0.093184	
3176.664123	0.089692	
3176.665624	0.087436	
3176.667218	0.083239	
3176.668705	0.080765	
3176.670270	0.078280	
3176.671779	0.076793	
3176.673328	0.073659	
3176.674853	0.071504	
3176.676398	0.069570	
3176.677928	0.067383	
3176.679448	0.065051	
3176.681017	0.063286	
3176.682548	0.061071	
3176.684118	0.058827	
3176.685614	0.058601	
3176.687193	0.056482	
3176.688717	0.055910	
3176.690285	0.054255	
3176.691781	0.053505	
3176.693345	0.053578	
3176.694868	0.051415	
3176.696382	0.050307	
3176.697950	0.050585	
3176.699476	0.049654	
3176.701058	0.048857	
3176.702554	0.049376	
3176.704146	0.048716	
3176.705656	0.048700	
3176.707253	0.049010	
3176.708745	0.048140	
3176.710308	0.048873	
3176.711837	0.048124	
3176.713411	0.048184	
3176.714945	0.048547	
3176.716460	0.047902	
3176.718039	0.048853	
3176.719548	0.048482	
3176.721106	0.048756	
3176.722617	0.049715	
3176.724203	0.049590	
3176.725692	0.050126	
3176.727270	0.048913	
3176.728789	0.048966	
3176.730364	0.049614	
3176.731856	0.049159	
3176.733454	0.049090	
3176.735161	0.048216	
3176.736697	0.048736	
3176.738412	0.048547	
3176.739937	0.047092	
3176.741667	0.047584	
3176.743163	0.047254	
3176.744932	0.045445	
3176.746420	0.044675	
3176.748205	0.044635	
3176.749693	0.042585	
3176.751462	0.041860	
3176.752945	0.040808	
3176.754690	0.039342	
3176.756178	0.037989	
3176.757905	0.036518	
3176.759422	0.034850	
3176.761135	0.032490	
3176.762676	0.030806	
3176.764411	0.028490	
3176.765955	0.025243	
3176.767644	0.022733	
3176.769193	0.021134	
3176.770877	0.018818	
3176.772440	0.017202	
3176.774107	0.013955	
3176.775699	0.011849	
3176.777348	0.009178	
3176.778952	0.006052	
3176.780593	0.001955	
3176.782193	-0.002557	
3176.783806	-0.006150	
3176.785458	-0.008841	
3176.787050	-0.011278	
3176.788707	-0.013993	
3176.790282	-0.016676	
3176.791964	-0.019310	
3176.793540	-0.022324	
3176.795212	-0.025264	
3176.796766	-0.028028	
3176.798449	-0.030662	
3176.799992	-0.033289	
3176.801717	-0.035673	
3176.803228	-0.037817	
3176.804955	-0.039895	
3176.806438	-0.042381	
3176.808198	-0.044322	
3176.809683	-0.046260	
3176.811449	-0.048870	
3176.812936	-0.050562	
3176.814728	-0.052270	
3176.816211	-0.054196	
3176.817965	-0.056178	
3176.819468	-0.056742	
3176.821195	-0.058474	
3176.822716	-0.059751	
3176.824431	-0.060601	
3176.825959	-0.061334	
3176.827683	-0.062824	
3176.829234	-0.063231	
3176.830944	-0.064460	
3176.832507	-0.065330	
3176.834178	-0.066192	
3176.835743	-0.065688	
3176.837389	-0.066538	
3176.838975	-0.066228	
3176.840607	-0.066683	
3176.842230	-0.066385	
3176.843846	-0.066837	
3176.845482	-0.066692	
3176.847094	-0.067106	
3176.848760	-0.067529	
3176.850364	-0.067413	
3176.852024	-0.067392	
3176.853592	-0.066973	
3176.855286	-0.066510	
3176.856846	-0.066627	
3176.858536	-0.066458	
3176.860086	-0.066599	
3176.861756	-0.067215	
3176.863240	-0.067284	
3176.864947	-0.067115	
3176.866446	-0.067497	
3176.868137	-0.067678	
3176.869617	-0.068194	
3176.871284	-0.068718	
3176.872785	-0.069475	
3176.874436	-0.069544	
3176.875969	-0.069818	
3176.877609	-0.071743	
3176.879175	-0.072726	
3176.880764	-0.074015	
3176.882348	-0.075288	
3176.883909	-0.076827	
3176.885524	-0.078317	
3176.887061	-0.079441	
3176.888746	-0.081069	
3176.890222	-0.083115	
3176.891918	-0.084984	
3176.893395	-0.087196	
3176.895087	-0.090314	
3176.896574	-0.092646	
3176.898303	-0.095236	
3176.899799	-0.098157	
3176.901507	-0.101303	
3176.902996	-0.104546	
3176.904695	-0.107527	
3176.906187	-0.110834	
3176.907853	-0.113940	
3176.909370	-0.116812	
3176.911017	-0.120836	
3176.912577	-0.124349	
3176.914175	-0.128571	
3176.915741	-0.132518	
3176.917311	-0.136164	
3176.918936	-0.139620	
3176.920487	-0.143632	
3176.922118	-0.146916	
3176.923631	-0.150883	
3176.925321	-0.155073	
3176.926812	-0.158714	
3176.928546	-0.163129	
3176.930024	-0.166936	
3176.931751	-0.170836	
3176.933233	-0.174622	
3176.934928	-0.178675	
3176.936408	-0.181857	
3176.938109	-0.185390	
3176.939603	-0.188850	
3176.941188	-0.192045	
3176.942728	-0.195239	
3176.944272	-0.198446	
3176.945865	-0.201326	
3176.947347	-0.204827	
3176.948991	-0.207707	
3176.950479	-0.210394	
3176.952127	-0.212501	
3176.953627	-0.214354	
3176.955262	-0.216489	
3176.956741	-0.218398	
3176.958374	-0.220163	
3176.959852	-0.221790	
3176.961485	-0.223788	
3176.962982	-0.225339	
3176.964596	-0.226664	
3176.966120	-0.227836	
3176.967685	-0.229262	
3176.969233	-0.229790	
3176.970752	-0.230600	
3176.972396	-0.231140	
3176.973895	-0.232018	
3176.975529	-0.232054	
3176.977043	-0.232666	
3176.978674	-0.233287	
3176.980165	-0.234044	
3176.981809	-0.234274	
3176.983293	-0.234511	
3176.984920	-0.234721	
3176.986414	-0.234805	
3176.988051	-0.234970	
3176.989530	-0.235692	
3176.991121	-0.234934	
3176.992644	-0.235341	
3176.994186	-0.235978	
3176.995787	-0.235712	
3176.997282	-0.236928	
3176.998896	-0.237271	
3177.000426	-0.238217	
3177.002064	-0.237770	
3177.003550	-0.238080	
3177.005198	-0.238938	
3177.006676	-0.240151	
3177.008314	-0.240598	
3177.009799	-0.241625	
3177.011438	-0.243176	
3177.012917	-0.243901	
3177.014510	-0.245460	
3177.016043	-0.246399	
3177.017590	-0.248586	
3177.019185	-0.249746	
3177.020679	-0.251922	
3177.022336	-0.253847	
3177.023825	-0.256236	
3177.025449	-0.257670	
3177.026965	-0.260305	
3177.028546	-0.263390	
3177.030021	-0.266166	
3177.031581	-0.267962	
3177.033065	-0.271423	
3177.034609	-0.273989	
3177.036154	-0.276611	
3177.037653	-0.279774	
3177.039212	-0.282481	
3177.040734	-0.285494	
3177.042319	-0.288696	
3177.043835	-0.292563	
3177.045385	-0.295766	
3177.046897	-0.299891	
3177.048453	-0.303045	
3177.049975	-0.307323	
3177.051538	-0.309498	
3177.053029	-0.312790	
3177.054559	-0.316141	
3177.056108	-0.319106	
3177.057600	-0.321922	
3177.059183	-0.324556	
3177.060682	-0.327783	
3177.062243	-0.329950	
3177.063769	-0.332955	
3177.065336	-0.334752	
3177.066847	-0.336911	
3177.068404	-0.339054	
3177.069916	-0.340267	
3177.071468	-0.342100	
3177.072971	-0.343920	
3177.074469	-0.345004	
3177.076039	-0.345137	
3177.077541	-0.346668	
3177.079122	-0.346970	
3177.080614	-0.348251	
3177.082191	-0.347852	
3177.083724	-0.348332	
3177.085302	-0.347550	
3177.086794	-0.346519	
3177.088342	-0.346047	
3177.089858	-0.344803	
3177.091407	-0.343498	
3177.092929	-0.342168	
3177.094413	-0.341149	
3177.095992	-0.339401	
3177.097505	-0.338071	
3177.099092	-0.335912	
3177.100585	-0.334317	
3177.102153	-0.331590	
3177.103688	-0.329596	
3177.105205	-0.325882	
3177.106759	-0.323259	
3177.108263	-0.320452	
3177.109851	-0.318172	
3177.111342	-0.315279	
3177.112905	-0.312282	
3177.114442	-0.309394	
3177.116037	-0.306389	
3177.117511	-0.303806	
3177.119063	-0.299766	
3177.120583	-0.297563	
3177.122138	-0.293365	
3177.123655	-0.290259	
3177.125190	-0.287391	
3177.126737	-0.284523	
3177.128268	-0.282219	
3177.129827	-0.278730	
3177.131324	-0.274944	
3177.132887	-0.272575	
3177.134397	-0.269783	
3177.135977	-0.266254	
3177.137472	-0.263701	
3177.139035	-0.260776	
3177.140565	-0.257984	
3177.142108	-0.254979	
3177.143658	-0.253207	
3177.145175	-0.251056	
3177.146747	-0.248993	
3177.148246	-0.246782	
3177.149829	-0.244739	
3177.151327	-0.242918	
3177.152914	-0.240449	
3177.154416	-0.238584	
3177.155967	-0.236485	
3177.157490	-0.235321	
3177.159032	-0.233097	
3177.160577	-0.232485	
3177.162097	-0.230539	
3177.163657	-0.229806	
3177.165165	-0.227627	
3177.166734	-0.226644	
3177.168226	-0.224662	
3177.169816	-0.223574	
3177.171325	-0.222104	
3177.172917	-0.221113	
3177.174400	-0.219445	
3177.175966	-0.217891	
3177.177486	-0.217032	
3177.179046	-0.215336	
3177.180577	-0.214237	
3177.182098	-0.212783	
3177.183677	-0.210869	
3177.185167	-0.209351	
3177.186743	-0.207401	
3177.188262	-0.205781	
3177.189836	-0.204081	
3177.191325	-0.202317	
3177.192888	-0.200496	
3177.194407	-0.198784	
3177.195971	-0.196105	
3177.197492	-0.193962	
3177.199018	-0.191642	
3177.200583	-0.189124	
3177.202098	-0.185583	
3177.203642	-0.182695	
3177.205147	-0.179650	
3177.206734	-0.176681	
3177.208226	-0.173885	
3177.209830	-0.170799	
3177.211324	-0.168306	
3177.212905	-0.164592	
3177.214403	-0.161985	
3177.215933	-0.158384	
3177.217478	-0.155383	
3177.219008	-0.150799	
3177.220564	-0.147604	
3177.222061	-0.143181	
3177.223637	-0.139431	
3177.225159	-0.136051	
3177.226743	-0.132760	
3177.228242	-0.129417	
3177.229808	-0.126214	
3177.231329	-0.122468	
3177.232870	-0.119060	
3177.234407	-0.116010	
3177.235926	-0.111551	
3177.237506	-0.108042	
3177.239031	-0.103067	
3177.240590	-0.099587	
3177.242087	-0.095699	
3177.243663	-0.092167	
3177.245166	-0.088485	
3177.246748	-0.084783	
3177.248243	-0.081403	
3177.249811	-0.078261	
3177.251331	-0.074861	
3177.252880	-0.070680	
3177.254416	-0.068271	
3177.255946	-0.065165	
3177.257519	-0.062007	
3177.259010	-0.058409	
3177.260588	-0.056016	
3177.262111	-0.052137	
3177.263705	-0.050389	
3177.265206	-0.046953	
3177.266766	-0.043976	
3177.268282	-0.041128	
3177.269846	-0.037728	
3177.271381	-0.035069	
3177.272899	-0.032435	
3177.274469	-0.029260	
3177.275986	-0.027190	
3177.277566	-0.024873	
3177.279060	-0.021417	
3177.280652	-0.020362	
3177.282148	-0.017635	
3177.283742	-0.015145	
3177.285238	-0.012156	
3177.286818	-0.010073	
3177.288316	-0.006488	
3177.289885	-0.004563	
3177.291411	-0.001626	
3177.292970	0.001589	
3177.294501	0.003683	
3177.296014	0.006656	
3177.297600	0.008872	
3177.299097	0.011140	
3177.300864	0.014338	
3177.302426	0.017641	
3177.304108	0.019708	
3177.305690	0.023217	
3177.307362	0.026206	
3177.308962	0.028872	
3177.310603	0.032099	
3177.312201	0.036792	
3177.313834	0.040442	
3177.315447	0.044917	
3177.317080	0.047830	
3177.318721	0.052031	
3177.320322	0.054662	
3177.321999	0.059347	
3177.323577	0.062742	
3177.325254	0.066396	
3177.326825	0.069305	
3177.328502	0.073687	
3177.330066	0.077091	
3177.331791	0.081873	
3177.333326	0.084846	
3177.335042	0.089309	
3177.336587	0.093237	
3177.338318	0.097567	
3177.339825	0.100979	
3177.341584	0.105829	
3177.343079	0.109886	
3177.344863	0.113999	
3177.346345	0.118265	
3177.348108	0.121786	
3177.349595	0.126035	
3177.351375	0.129999	
3177.352851	0.133186	
3177.354612	0.136968	
3177.356107	0.140348	
3177.357861	0.144239	
3177.359385	0.147341	
3177.361124	0.150918	
3177.362648	0.154286	
3177.364364	0.156775	
3177.365900	0.160909	
3177.367589	0.164200	
3177.369129	0.168292	
3177.370813	0.170834	
3177.372384	0.174871	
3177.374036	0.177884	
3177.375636	0.180744	
3177.377305	0.182368	
3177.378884	0.184958	
3177.380516	0.186408	
3177.382127	0.189006	
3177.383742	0.190605	
3177.385392	0.193445	
3177.386990	0.195596	
3177.388649	0.198340	
3177.390251	0.199935	
3177.391902	0.202449	
3177.393487	0.204507	
3177.395160	0.206276	
3177.396717	0.207480	
3177.398431	0.209442	
3177.399972	0.211355	
3177.401677	0.214010	
3177.403218	0.215081	
3177.404964	0.217204	
3177.406462	0.218634	
3177.408212	0.220213	
3177.409705	0.221732	
3177.411487	0.224447	
3177.412964	0.226788	
3177.414747	0.228335	
3177.416228	0.231191	
3177.417997	0.233870	
3177.419475	0.236480	
3177.421213	0.238772	
3177.422721	0.241507	
3177.424478	0.244005	
3177.426009	0.247260	
3177.427761	0.249975	
3177.429283	0.253475	
3177.430997	0.255820	
3177.432532	0.259095	
3177.434201	0.262539	
3177.435761	0.266519	
3177.437425	0.269806	
3177.439013	0.273702	
3177.440669	0.277685	
3177.442257	0.281206	
3177.443807	0.284465	
3177.445410	0.288804	
3177.446919	0.291724	
3177.448608	0.295773	
3177.450098	0.299386	
3177.451833	0.303801	
3177.453302	0.307121	
3177.455019	0.311580	
3177.456505	0.314496	
3177.458203	0.318847	
3177.459683	0.321546	
3177.461385	0.325143	
3177.462873	0.328148	
3177.464536	0.330622	
3177.466042	0.334030	
3177.467672	0.337244	
3177.469218	0.340455	
3177.470849	0.342276	
3177.472405	0.346360	
3177.473996	0.348951	
3177.475590	0.350961	
3177.477146	0.353499	
3177.478764	0.355275	
3177.480275	0.356935	
3177.481960	0.358200	
3177.483444	0.360282	
3177.485163	0.361354	
3177.486635	0.360713	
3177.488342	0.362401	
3177.489821	0.363453	
3177.491527	0.363118	
3177.493012	0.363436	
3177.494711	0.363243	
3177.496196	0.363674	
3177.497870	0.361475	
3177.499379	0.360842	
