time (s)	magX	magY	magZ
5872.046011	-503.905273	-421.785492	-691.118652
5872.049365	-502.794861	-421.259491	-679.488037
5872.052707	-500.223267	-421.493286	-666.279358
5872.056027	-499.112793	-421.084167	-654.824097
5872.059390	-496.365845	-420.558167	-642.433655
5872.063115	-493.560486	-420.149048	-631.095215
5872.066426	-491.281128	-418.804779	-620.341309
5872.069767	-488.884827	-418.863251	-608.886047
5872.073128	-486.137939	-417.519012	-598.190491
5872.076458	-484.384521	-416.408539	-587.962585
5872.079855	-481.696106	-415.824066	-577.793091
5872.083207	-479.124512	-414.772095	-566.746948
5872.086458	-476.260681	-413.895355	-557.512512
5872.089765	-473.922821	-411.732910	-547.927490
5872.093090	-471.059052	-411.148468	-538.576233
5872.096457	-467.844543	-410.914673	-528.465210
5872.099809	-465.857361	-409.219757	-520.107544
5872.103170	-463.636444	-407.641754	-511.457642
5872.106519	-460.246613	-406.297485	-502.515503
5872.109838	-458.084167	-405.245483	-493.865601
5872.113092	-455.044983	-404.018127	-485.858582
5872.116433	-452.005829	-402.557007	-476.916473
5872.119769	-449.025116	-400.628296	-469.844543
5872.123120	-446.921112	-399.810089	-462.129791
5872.126484	-443.706604	-397.998230	-453.947418
5872.129851	-441.544098	-396.653992	-447.284637
5872.133167	-438.504944	-395.134460	-440.212769
5872.136856	-436.342468	-393.381073	-433.257782
5872.140224	-433.887787	-392.036835	-426.653442
5872.143544	-430.848602	-389.932770	-419.756897
5872.146941	-428.978363	-389.231445	-413.035675
5872.150281	-426.231445	-387.828766	-406.723541
5872.153610	-423.835175	-385.958527	-400.937500
5872.156909	-421.088226	-384.380493	-395.151367
5872.160236	-418.165985	-383.153168	-389.774414
5872.163606	-416.587982	-382.101105	-384.105194
5872.166932	-413.373474	-380.639984	-378.436005
5872.170308	-411.386292	-378.711304	-373.175934
5872.173623	-409.223846	-378.243744	-368.266541
5872.176937	-406.593811	-376.198120	-362.655762
5872.180258	-404.489746	-374.620117	-357.980133
5872.183631	-402.619507	-373.626556	-353.246063
5872.187012	-400.281708	-371.873199	-348.979553
5872.190314	-398.352997	-370.587372	-344.479279
5872.193630	-395.722961	-370.061371	-339.452972
5872.197019	-393.852722	-369.009369	-335.537140
5872.200315	-392.566925	-367.723572	-332.030426
5872.203674	-390.053741	-366.028656	-328.699005
5872.207009	-388.358826	-364.918182	-324.490967
5872.210308	-386.079468	-363.807739	-320.984222
5872.213704	-384.442993	-363.047943	-317.009949
5872.217002	-382.631226	-361.528351	-313.620117
5872.220806	-380.760956	-360.476318	-310.639404
5872.223700	-378.773804	-359.541199	-307.483368
5872.227455	-376.260681	-358.372314	-304.444183
5872.230423	-375.793091	-357.495605	-301.054352
5872.233769	-373.864410	-356.794281	-297.839874
5872.237503	-372.169495	-355.742279	-295.502075
5872.240840	-371.175903	-355.391602	-293.164246
5872.244197	-369.130341	-354.398010	-290.417328
5872.247515	-368.428986	-353.170654	-287.553497
5872.250840	-366.734070	-352.469330	-285.917023
5872.254152	-365.331360	-351.826447	-284.163666
5872.257512	-363.461121	-351.651093	-281.884277
5872.260897	-362.584442	-351.475739	-279.721802
5872.264214	-362.292236	-350.189941	-277.734650
5872.267510	-361.707764	-349.488617	-276.448883
5872.270819	-360.012848	-348.904144	-274.870850
5872.274235	-358.551727	-349.137939	-273.409729
5872.277550	-358.317932	-347.969025	-271.305695
5872.280907	-357.090576	-347.910583	-269.610779
5872.284286	-355.804779	-347.384583	-268.850983
5872.287584	-355.044983	-346.624786	-268.032745
5872.290909	-353.583862	-346.449463	-266.454712
5872.294267	-353.700775	-346.391022	-265.461151
5872.297588	-352.531830	-346.098785	-264.759796
5872.300990	-351.713623	-346.858582	-264.409149
5872.304266	-351.713623	-345.981873	-264.000000
5872.307567	-350.953827	-345.748108	-262.480438
5872.310843	-350.077148	-345.981873	-261.603760
5872.314578	-350.077148	-345.864990	-261.954437
5872.317844	-349.434235	-346.215668	-261.662201
5872.321146	-348.732910	-346.040344	-260.843964
5872.324436	-347.914642	-346.098785	-260.727081
5872.327723	-346.921082	-346.741669	-261.136200
5872.331096	-347.271759	-347.092346	-261.077728
5872.334386	-346.745758	-347.209229	-261.428436
5872.337743	-346.570435	-347.559906	-261.486877
5872.341048	-346.161285	-347.384583	-261.311523
5872.344756	-345.869080	-347.852142	-262.421997
5872.348064	-346.453522	-348.027466	-262.129761
5872.351369	-345.985962	-348.436584	-262.305084
5872.354667	-345.459961	-349.021057	-262.071320
5872.357958	-345.927521	-350.014618	-263.181793
5872.361308	-345.576843	-350.540619	-262.947998
5872.364596	-346.044403	-350.715973	-264.233795
5872.367965	-346.044403	-351.358856	-265.344269
5872.371241	-345.752197	-351.884857	-265.753357
5872.374573	-346.219757	-353.229126	-267.682068
5872.378277	-346.161285	-353.988922	-268.266541
5872.381568	-346.979523	-354.924042	-269.727661
5872.384938	-346.804199	-355.800690	-271.305695
5872.388240	-347.037994	-356.151398	-272.766815
5872.391644	-347.154877	-356.794281	-273.994171
5872.394987	-347.914642	-358.664551	-275.396851
5872.398291	-348.557587	-359.774994	-276.916443
5872.401640	-348.966675	-360.885468	-279.312714
5872.404962	-349.492706	-361.937469	-280.306274
5872.408274	-350.018707	-363.164825	-282.410278
5872.411642	-350.486267	-364.742859	-284.689667
5872.414957	-351.772064	-366.028656	-287.261261
5872.418332	-352.590302	-367.372894	-288.663971
5872.421600	-353.350067	-368.950928	-291.878448
5872.424968	-353.466980	-369.886047	-294.450043
5872.428265	-354.051422	-371.405640	-296.144958
5872.431615	-355.395691	-373.158966	-299.300995
5872.434986	-355.512543	-375.087677	-302.340179
5872.438300	-356.447693	-376.198120	-305.379333
5872.442048	-357.558136	-378.302185	-308.418488
5872.445553	-358.960815	-378.945068	-312.042084
5872.448882	-359.311523	-381.224457	-315.022797
5872.452214	-360.071320	-383.386902	-318.354218
5872.455542	-361.064880	-384.906494	-322.679138
5872.458878	-361.824646	-386.659851	-326.595001
5872.462216	-363.461121	-388.588562	-330.043274
5872.465545	-364.630035	-390.634155	-333.608429
5872.468877	-365.506714	-392.855072	-337.699615
5872.472208	-367.026276	-394.491547	-342.316803
5872.475561	-368.078308	-396.537109	-347.167755
5872.478881	-369.480988	-399.284027	-351.375824
5872.482212	-370.591461	-400.862091	-355.466980
5872.485546	-371.351257	-404.076569	-360.551727
5872.488870	-372.695496	-405.596161	-365.344269
5872.492227	-374.390411	-407.174164	-370.253662
5872.495545	-375.208618	-409.570465	-374.578613
5872.498873	-376.786682	-412.025116	-380.014038
5872.502211	-378.130920	-413.953827	-386.676819
5872.505538	-379.416718	-416.876068	-391.469330
5872.508877	-380.527161	-418.512573	-397.781433
5872.512202	-381.871429	-421.960846	-403.742859
5872.515540	-384.326141	-424.473999	-409.528931
5872.518904	-384.968994	-426.694916	-416.659271
5872.522207	-386.488586	-428.798950	-422.912933
5872.525540	-388.300415	-431.253662	-430.101715
5872.528877	-389.644623	-434.117462	-437.641144
5872.532203	-391.047333	-436.922852	-443.777954
5872.535535	-393.092926	-439.962006	-451.200500
5872.538874	-394.963165	-442.299835	-459.090607
5872.542208	-395.606079	-444.871429	-466.688507
5872.545989	-395.898315	-447.910583	-474.461761
5872.549345	-397.827026	-449.897736	-482.293427
5872.552715	-400.047913	-453.346008	-490.884888
5872.555976	-400.866119	-456.092926	-498.599670
5872.559290	-402.210388	-459.424316	-507.775604
5872.562664	-403.846893	-462.989471	-516.542358
5872.565956	-404.840424	-465.561096	-525.484497
5872.569287	-405.424896	-468.191101	-535.244873
5872.572629	-406.652252	-470.762726	-545.472778
5872.575969	-408.171814	-473.743439	-554.531860
5872.579315	-409.223846	-475.905884	-564.759766
5872.582647	-410.275848	-478.886597	-574.929260
5872.585992	-410.860291	-481.224457	-585.332581
5872.589291	-412.263031	-484.380493	-596.437134
5872.592664	-412.204559	-485.783203	-607.132629
5872.595967	-413.548798	-489.114563	-617.594360
5872.599293	-414.016357	-491.452362	-629.926331
5872.602618	-414.600800	-493.790192	-640.797180
5872.605964	-414.893066	-496.069550	-652.720032
5872.609286	-415.360596	-498.991852	-665.402649
5872.612640	-416.061920	-500.862091	-677.559326
5872.615981	-415.945068	-502.673859	-690.008179
5872.619788	-416.120392	-504.953217	-702.690796
5872.623046	-416.412598	-506.297516	-715.724121
5872.626380	-416.354187	-508.635345	-728.348328
5872.629718	-416.763306	-510.622467	-742.258301
5872.633065	-416.354187	-512.375793	-755.992981
5872.636429	-415.711273	-513.953796	-770.195190
5872.639804	-414.893066	-515.473389	-783.637634
5872.643142	-414.133270	-516.876038	-797.956726
5872.646411	-413.315002	-517.928101	-812.918762
5872.649723	-412.672089	-519.389221	-828.231445
5872.653035	-411.444763	-519.622986	-842.842773
5872.656396	-409.048523	-520.791931	-858.272400
5872.659737	-407.470459	-522.136108	-873.468140
5872.663121	-406.535339	-522.486877	-889.014526
5872.666467	-404.080627	-521.960815	-905.087097
5872.669820	-401.216858	-521.493286	-919.873718
5872.673043	-399.580353	-521.610107	-936.238403
5872.676369	-396.950287	-521.259460	-952.252502
5872.679749	-393.618927	-521.551697	-968.324951
5872.683066	-390.112213	-520.499695	-985.098755
5872.686398	-387.131500	-519.681458	-1000.586792
5872.689783	-382.689667	-517.752747	-1016.542358
5872.693148	-378.715393	-516.525391	-1033.550049
5872.696455	-374.682617	-514.888916	-1049.037964
5872.700148	-369.714783	-512.200439	-1065.811768
5872.703517	-364.454712	-509.921112	-1082.936279
5872.706894	-360.129730	-507.992401	-1097.839844
5872.710211	-354.694336	-504.953217	-1115.665649
5872.713584	-349.141998	-502.089386	-1131.854980
5872.716919	-342.888367	-498.524261	-1147.985962
5872.720230	-336.284058	-495.017548	-1164.409058
5872.723558	-329.679718	-490.400360	-1180.189331
5872.726931	-322.549377	-486.601410	-1196.320312
5872.730227	-315.477509	-482.334900	-1211.691406
5872.733539	-307.353607	-477.367035	-1226.770264
5872.736836	-300.164795	-471.814728	-1241.498535
5872.740184	-291.982452	-465.502655	-1257.278809
5872.743496	-283.098785	-458.372314	-1271.539429
5872.746890	-274.215088	-452.118622	-1285.332520
5872.750300	-266.266479	-445.631226	-1298.541138
5872.753595	-255.512543	-437.741089	-1312.275757
5872.756910	-246.044403	-430.260101	-1327.471680
5872.760228	-235.758026	-422.194611	-1339.043823
5872.763507	-225.179413	-414.947418	-1352.252441
5872.766938	-215.185272	-405.829895	-1363.707764
5872.770268	-204.723557	-396.887787	-1374.812378
5872.773581	-193.034485	-387.828766	-1386.267700
5872.776952	-181.111633	-378.185272	-1397.138550
5872.780276	-169.831665	-368.074219	-1407.191162
5872.783660	-158.025711	-358.080078	-1414.905884
5872.786968	-145.576859	-347.676788	-1425.250732
5872.790692	-132.952667	-336.338409	-1432.439575
5872.794021	-119.977791	-325.175323	-1439.219116
5872.797321	-106.243141	-314.596741	-1445.998779
5872.800644	-93.443596	-302.966125	-1452.427734
5872.803979	-79.767395	-290.692596	-1458.038574
5872.807362	-66.324959	-279.003510	-1463.473999
5872.810632	-53.116310	-266.437775	-1466.630005
5872.813988	-38.680305	-253.755127	-1469.902954
5872.817284	-24.653421	-241.072479	-1472.708374
5872.820618	-10.334311	-228.156067	-1473.058960
5872.823969	4.335476	-215.531830	-1474.929199
5872.827295	18.654587	-202.323181	-1475.396851
5872.830590	33.032143	-189.289886	-1475.455322
5872.833898	47.468147	-175.438324	-1474.403198
5872.837264	62.079483	-161.820587	-1472.299194
5872.840674	75.463470	-148.027466	-1470.253662
5872.843968	90.191696	-134.000580	-1466.922241
5872.847695	104.686142	-119.915260	-1462.772705
5872.851048	118.596138	-106.414375	-1457.746338
5872.854365	133.090591	-91.803047	-1453.655151
5872.857788	147.409698	-78.360603	-1446.817017
5872.861107	161.319702	-64.625946	-1440.329590
5872.864427	174.528351	-50.715950	-1432.965454
5872.867768	188.146118	-36.455292	-1425.601440
5872.871101	201.237869	-22.369961	-1417.652832
5872.874391	214.329636	-9.453535	-1408.710693
5872.877764	227.304504	4.339568	-1400.119263
5872.881057	239.928696	17.723553	-1389.189941
5872.884428	252.202225	31.984221	-1379.663330
5872.887721	264.125061	45.251316	-1367.857422
5872.891038	275.755707	58.167736	-1355.408447
5872.894363	287.094116	70.149033	-1343.836304
5872.897660	298.081818	84.000587	-1332.088745
5872.901023	309.244904	95.923439	-1319.464600
5872.904344	319.706604	108.313850	-1306.489746
5872.907641	329.992981	120.236702	-1293.222656
5872.910966	340.104065	131.575104	-1279.254272
5872.914795	349.981293	143.497955	-1265.636475
5872.918110	358.864990	154.251892	-1251.901855
5872.921412	368.391571	165.882507	-1236.822876
5872.924770	377.392181	175.876678	-1221.860962
5872.928061	385.691437	186.396851	-1207.074219
5872.931403	393.990662	196.274109	-1192.053711
5872.934696	402.114563	205.683807	-1176.799561
5872.938057	409.186462	216.145538	-1161.369873
5872.941419	415.907654	225.555237	-1144.771484
5872.944722	422.453552	234.029785	-1129.692627
5872.948045	428.765656	242.971954	-1113.912354
5872.951399	434.551697	251.563416	-1098.249023
5872.954719	440.513184	259.278198	-1081.592041
5872.958132	446.416138	266.934540	-1065.402710
5872.961479	451.500885	273.947998	-1049.037964
5872.964776	456.118042	280.961426	-1034.251343
5872.968122	460.501465	288.325531	-1017.185242
5872.971452	464.884857	294.929871	-1002.632324
5872.974743	468.683807	301.300415	-986.209229
5872.978102	472.541229	307.437164	-971.130310
5872.981390	474.703674	312.755707	-955.583862
5872.984785	477.392181	318.307983	-939.920532
5872.988102	480.255981	323.918732	-923.847961
5872.991920	482.476898	329.061920	-909.061340
5872.995492	484.639404	332.860901	-893.456482
5872.998827	485.983643	338.179413	-878.026855
5873.002160	487.678558	342.095245	-863.766235
5873.005503	489.490356	346.186432	-848.395081
5873.008823	490.191681	349.810059	-833.433105
5873.012154	490.834625	353.258331	-819.640015
5873.015489	491.886597	356.239044	-805.788452
5873.018827	492.704865	358.927521	-791.586182
5873.022151	493.347748	362.141998	-776.682617
5873.025487	493.055542	365.356506	-763.181763
5873.028843	492.997070	367.226776	-749.914673
5873.032150	493.347748	369.623016	-736.179993
5873.035486	492.646393	371.434845	-723.672668
5873.038826	491.594391	373.889526	-710.814758
5873.042191	490.600830	374.941528	-697.722900
5873.045484	490.367035	376.168884	-684.981812
5873.048833	488.789032	377.630035	-672.649902
5873.052159	488.321442	378.623596	-659.733459
5873.055487	487.152557	379.441833	-648.219727
5873.058817	484.639404	381.136749	-636.705994
5873.062154	483.938080	381.195221	-625.601379
5873.065487	481.541779	381.954987	-613.853882
5873.068814	480.898895	382.539429	-602.164795
5873.072154	479.262451	382.480988	-591.410828
5873.075485	477.275269	383.065460	-580.481567
5873.078820	474.177673	383.123901	-569.435425
5873.082153	472.716553	383.123901	-559.791931
5873.085509	470.846313	382.948578	-549.388672
5873.088811	468.508484	382.948578	-539.277649
5873.092160	466.872009	383.240784	-529.692566
5873.095485	464.826447	382.305664	-519.639954
5873.098815	461.962585	382.597900	-510.580963
5873.102146	459.098755	382.539429	-501.814178
5873.105486	457.403839	381.604309	-493.105804
5873.108810	455.299835	380.961426	-483.345428
5873.112143	452.494476	379.792511	-475.163086
5873.115907	449.630646	379.032715	-467.156067
5873.119238	447.175934	377.980713	-458.506165
5873.122583	444.195221	377.104004	-450.966705
5873.125907	441.623627	376.344238	-443.602570
5873.129291	439.753387	375.409088	-436.472260
5873.132592	437.298676	374.357117	-429.108154
5873.135926	434.785492	373.129761	-421.393341
5873.139252	432.213928	372.253052	-414.438354
5873.142571	430.285217	371.727051	-407.366455
5873.145906	427.187592	369.739899	-400.411469
5873.149240	424.791351	368.921692	-394.742279
5873.152563	422.219757	368.278778	-388.079498
5873.155894	420.115723	367.168304	-382.059631
5873.159243	417.602570	366.116302	-375.922882
5873.162587	414.972534	365.181183	-369.902985
5873.165921	412.517822	363.895355	-363.240234
5873.169255	410.180023	362.258911	-357.746368
5873.172615	407.783752	361.089996	-352.486267
5873.175897	405.445953	360.037994	-346.641724
5873.179236	402.991241	357.933960	-341.615448
5873.182563	400.828766	357.232605	-336.822906
5873.186317	397.731140	356.472809	-331.387512
5873.189685	395.510254	355.713043	-327.062561
5873.193008	393.698425	353.959656	-322.796051
5873.196402	391.126831	353.258331	-317.652863
5873.199740	389.315033	351.914062	-313.503204
5873.202991	386.451202	350.862061	-308.827606
5873.206311	384.756287	349.634705	-304.794861
5873.209656	381.834015	349.050262	-300.411469
5873.213012	380.080658	346.712433	-296.846283
5873.216370	378.327301	345.835754	-293.807159
5873.219726	376.164825	344.549957	-290.125092
5873.223067	374.177673	343.790161	-286.559906
5873.226332	372.248962	342.738159	-282.936310
5873.229655	371.196960	341.861481	-279.546478
5873.232979	369.268280	340.867889	-276.273529
5873.236344	366.930450	339.874329	-273.059052
5873.239690	364.592651	339.172974	-269.318542
5873.243061	363.306854	337.185852	-266.863831
5873.246401	361.845703	337.185852	-263.824677
5873.249775	359.800110	335.666260	-260.551727
5873.253003	358.222107	335.549377	-258.097015
5873.256755	356.819397	334.614258	-255.408539
5873.259685	355.533630	333.503784	-253.596725
5873.263485	353.721802	332.510223	-251.025131
5873.266814	351.968445	331.633545	-248.453537
5873.270169	350.682648	331.399750	-246.232620
5873.273474	348.929291	330.698425	-244.420807
5873.276852	347.877258	330.289276	-241.556992
5873.280145	346.240814	329.237305	-240.271194
5873.283535	344.955017	328.945068	-238.459381
5873.286838	343.318542	327.834595	-236.413803
5873.290151	342.500305	327.425476	-235.186447
5873.293529	341.448273	327.191681	-233.374634
5873.296856	339.753357	326.841034	-231.971939
5873.300167	338.526001	325.847443	-230.218582
5873.303542	337.707764	325.379883	-229.108124
5873.306836	336.363525	325.029205	-227.062546
5873.310161	335.603760	324.795441	-226.478088
5873.313451	334.727081	324.152527	-225.659851
5873.316785	333.616608	324.620087	-224.490936
5873.320100	333.324371	323.684967	-223.614243
5873.323483	332.155457	324.035645	-222.270020
5873.326834	331.395691	323.275848	-221.510223
5873.330165	331.337219	323.158966	-221.218002
5873.333470	330.226776	323.334320	-220.049088
5873.336819	329.583862	323.334320	-219.581512
5873.340170	328.999420	323.275848	-218.529526
5873.343910	328.590302	323.451172	-218.237289
5873.347212	327.479828	323.042084	-217.886627
5873.350574	327.304504	322.749847	-216.951492
5873.353839	326.427826	323.217407	-216.308578
5873.357176	325.901825	323.684967	-216.074814
5873.360443	325.784912	323.217407	-215.899475
5873.363727	325.258911	323.743408	-215.607254
5873.366999	324.966675	324.152527	-215.782578
5873.371548	324.732910	324.210968	-216.133255
5873.374304	324.148468	324.561646	-215.899475
5873.390279	323.271759	326.607239	-216.893036
5873.394106	323.213318	327.016357	-217.068375
5873.397482	322.862671	327.367004	-217.535934
5873.400922	322.979553	328.243713	-218.295731
5873.404249	323.213318	328.711273	-218.587952
5873.407567	323.330231	329.237305	-219.464645
5873.410981	323.330231	329.997070	-220.750443
5873.414301	323.739319	330.289276	-221.276443
5873.417573	324.206909	331.107544	-222.153122
5873.420911	323.973114	332.627106	-223.088257
5873.424279	324.616028	333.679138	-224.432510
5873.427650	324.849792	334.088257	-225.893631
5873.430927	325.258911	334.964905	-226.536530
5873.434243	325.317352	335.783173	-227.354752
5873.437599	326.369385	336.952057	-229.575699
5873.440918	325.843384	337.828766	-230.218582
5873.444250	326.895386	338.822327	-231.913498
5873.447558	327.070740	339.991241	-233.374634
5873.450916	328.005859	341.393921	-236.063110
5873.454301	328.765656	342.971954	-237.115128
5873.457607	329.057861	344.082397	-239.160721
5873.460931	329.876099	344.608398	-240.563400
5873.464307	330.752777	346.244873	-243.018112
5873.467609	331.045013	347.355347	-244.888367
5873.471019	331.746368	348.699585	-247.167740
